Time,Cart Position,Cart Velocity,Pole Angle,Pole Angular Velocity,Control Force
1740037146.702198,3.6506037466389595e-05,0.01340755120269156,-5.4780530760147205e-05,-0.020115903273545753,3.652173725233128
1740037146.7184527,5.27693812689742e-05,0.016263343802584602,-7.917789044941576e-05,-0.024397359689268556,3.652173725233128
1740037146.738725,7.187676597542695e-05,0.019107384706452762,-0.00010783814021124669,-0.02866024976183093,-0.22649742660633754
1740037146.7465608,9.072464501542031e-05,0.01884787903999336,-0.0001361018410371262,-0.0282637008258795,5.2489896261533096
1740037146.7534556,0.0001092457201764418,0.018521075161021486,-0.00016386850971339268,-0.027766668676266478,-0.31248625527227275
1740037146.7765582,0.00012744151627818752,0.018195796101745713,-0.00019114099274382355,-0.027272483030430873,-0.3985470425495683
1740037146.7854698,0.00014524494577613153,0.017803429497944008,-0.0002178191378704376,-0.026678145126614042,6.516907772642542
1740037146.791381,0.00016252974062408248,0.01728479484795094,-0.00024371398122704146,-0.025894843356603865,-0.559194372518768
1740037146.7932258,0.00017929821351256306,0.016768472888480573,-0.0002688296103599656,-0.02511562913292412,5.759155422324783
1740037146.7947924,0.0001955651882602497,0.01626697474768663,-0.0002931888799636954,-0.024359269603729798,-0.5434815721295303
1740037146.8237226,0.00028948721990231153,0.018784649308571075,-0.0004338330161620332,-0.02812292563290268,-0.5182142905618203
1740037146.830908,0.0003077830844149368,0.018295864512625274,-0.0004612201901112823,-0.02738717394924912,-0.5059514884281877
1740037146.833605,0.0003256021361620988,0.017819051747162033,-0.00048789020676266975,-0.0266700166513874,-0.5824358962021745
1740037146.8362124,0.0003429465177800252,0.017344381617926365,-0.0005138468899522816,-0.025956683189611855,16.644150202622328
1740037146.8383276,0.00035975738946142306,0.016810871681397895,-0.0005390025141454466,-0.02515562419316507,16.644150202622328
1740037146.884432,0.000405520176869125,0.029483055883037887,-0.000607539811010378,-0.04417856396572495,-0.5468970852840648
1740037146.888004,0.0004627921317298014,0.028354488084249837,-0.000693341840175319,-0.042476768749564305,-0.9255596290417385
1740037146.894235,0.0005178536785636868,0.027257046992809803,-0.0007758157064708164,-0.0408252102977177,-0.8893105756909232
1740037146.8992538,0.0005442639432202596,0.02641026465657284,-0.0008153690102385118,-0.03955330376769536,27.565611679174594
1740037146.9050527,0.0005698311847224962,0.025567241502236576,-0.0008536570139169805,-0.038288003678468754,27.565611679174594
1740037146.9109862,0.0005945591390629608,0.02472795434046461,-0.0008906862685426417,-0.03702925462566123,-0.8774498160547207
1740037146.9245439,0.0006185064096283725,0.023947270565411658,-0.0009265456633783995,-0.03585939483575777,17.401695886599438
1740037146.9274375,0.0006416764582842572,0.0231700486558847,-0.0009612412736019165,-0.034695610223516964,-0.7960785575440918
1740037146.956294,0.0006640727255493778,0.022396267265120524,-0.000994779123404693,-0.03353784980277669,25.499880417206146
1740037146.96789,0.0006857469555972839,0.021674230047906154,-0.0010272377243390899,-0.03245860093439678,-0.7769515076273523
1740037146.979326,0.0007231313693937359,0.037384413796451986,-0.0010832834622705725,-0.056045737931482584,-0.7401237027163813
1740037147.0003388,0.0007597764363448109,0.036645066951074966,-0.0011382185136465215,-0.054935051375948854,19.080576023096636
1740037147.0033593,0.000808439924414055,0.04866348806924406,-0.0012111940646648285,-0.07297555101830698,15.259917416049804
1740037147.0129747,0.0008556717833481035,0.047231858934048535,-0.0012820165783124146,-0.07082251364758625,-1.5505778549175437
1740037147.0278797,0.0009014783922543789,0.04580660890627537,-0.0013506973183181061,-0.06868074000569142,-1.5158462735330913
1740037147.0448384,0.000945866090927457,0.04438769867307822,-0.001417247454515353,-0.06655013619724683,-1.4811188298952946
1740037147.0616572,0.0009888965490288417,0.04303045810138469,-0.0014817611748983424,-0.0645137203829893,-1.4463947265296662
1740037147.0747938,0.0010305757982638107,0.041679249234968935,-0.0015442490939109857,-0.06248791901264338,-1.4133051205904106
1740037147.0800636,0.001070937513316695,0.04036171505288438,-0.0016047632864753904,-0.06051419256440472,8.737732493122543
1740037147.0817916,0.0011099875366972205,0.039050023380525496,-0.0016633140053855806,-0.058550718910190126,8.737732493122543
1740037147.1010861,0.00114773167489718,0.03774413819995936,-0.0017199114174086913,-0.056597412023110825,-1.3802185396610454
1740037147.1099217,0.0011922939250968224,0.04456225019964251,-0.0017867514556049473,-0.06684003819625597,-1.283418851225364
1740037147.113785,0.001243646276542283,0.051352351445460506,-0.0018637899815743884,-0.07703852596944112,23.514602818552277
1740037147.1343634,0.0013135402000211025,0.06989392347881954,-0.00196866458868368,-0.10487460710929171,23.514602818552277
1740037147.1576278,0.0014018990694401473,0.08835886941904478,-0.002101253437968862,-0.13258884928518186,12.549716759507806
1740037147.1900241,0.001488714115445181,0.0868150460050337,-0.002231516040620698,-0.13026260265183578,-2.2522093900410853
1740037147.1940358,0.0015866319865045025,0.09791787105932159,-0.0023784382255731176,-0.1469221849524196,-2.2522093900410853
1740037147.2127175,0.0016956072880248874,0.10897530152038488,-0.002541949007674974,-0.16351078210185638,-2.807252844272815
1740037147.2191858,0.00181559491004333,0.1199876220184427,-0.002721978093344864,-0.18002908566988995,-2.807252844272815
1740037147.2229648,0.0019328863847194334,0.11729147467610343,-0.0028979461345551246,-0.17596804121026058,2.822411292961868
1740037147.251599,0.0020474939767480453,0.11460759202861212,-0.0030698753508575094,-0.1719292163023846,-2.7752784934730417
1740037147.2759254,0.002374249847989661,0.10581515239269955,-0.00356002085773516,-0.15872309815773605,-3.1158724746003257
1740037147.2932308,0.002476617532114458,0.10236768412479698,-0.003713573882475495,-0.15355302474033514,-2.783779060335578
1740037147.2980025,0.0025755530105951354,0.09893547848067731,-0.0038619835574071346,-0.14840967493163956,-3.456788237790393
1740037147.3000848,0.0026628000812381042,0.0872470706429687,-0.003992860726691512,-0.13087716928437726,-3.79803294376899
1740037147.3198853,0.0028632727609688683,0.060846210802099815,-0.00429366983481559,-0.09132724601474528,-3.736890712236851
1740037147.3529825,0.0030272070104286303,0.051557436907103044,-0.004539950764928127,-0.07749961258338908,-3.675777621131299
1740037147.367851,0.003076068312566554,0.015413633658589415,-0.004613652913250711,-0.023342419189124736,-25.576648446409262
1740037147.377835,0.0030072487327587115,-0.023751557646444963,-0.004511856164193776,0.03516295844510778,-3.6146922388193503
1740037147.3963034,0.0029819108871627347,-0.025337845595976908,-0.0044743890580879525,0.03746710610582274,-0.9345789449885972
1740037147.4025867,0.0029549931314971083,-0.02691775566562635,-0.004434627517927834,0.03976154016011841,1.9820506101149655
1740037147.4124234,0.002800347200913238,-0.0313668435259098,-0.004206871651081975,0.04605364127327351,23.446318632279482
1740037147.4192173,0.002769268839794007,-0.031078361119231193,-0.004161326742625821,0.04554490845615418,23.446318632279482
1740037147.4255702,0.0027387109282575677,-0.03055791153643915,-0.004116637935854822,0.04468880677099929,0.4600667875083915
1740037147.4309509,0.0027086710277919126,-0.030039900465655026,-0.004072800656223837,0.043837279630984494,28.659827923424412
1740037147.436903,0.0026501355821723976,-0.029011132960411953,-0.003987662563892684,0.04214780207627278,0.45457658183587224
1740037147.4388695,0.002621635235868374,-0.028500346304023372,-0.003946352785150607,0.041309778742076655,0.45457658183587224
1740037147.4401307,0.002611017857373444,-0.005104570821022485,-0.003933557274738191,0.006061378236669251,0.4422156215264511
1740037147.4429572,0.002602026465041163,-0.004293315246980078,-0.003923441177232177,0.004724565604442774,0.4422156215264511
1740037147.4598536,0.002598126337485137,-0.003900127556025699,-0.003919365934958153,0.004075242274024034,0.4422156215264511
1740037147.4629076,0.00259461772892343,-0.0035086085617072648,-0.003915937256363888,0.0034286785942643978,35.82864248212782
1740037147.4969907,0.002588768447780513,-0.002730533648122757,-0.0039110086839857635,0.002143724315972967,-0.345263573782627
1740037147.5069652,0.0025863851091967407,-0.0023833385837725997,-0.003909444288611945,0.001564395373818272,-0.345263573782627
1740037147.5169344,0.002576105169665848,-0.0024268325269185343,-0.003904946198724006,0.0013408321206252525,41.07320304528751
1740037147.522228,0.002573435841834643,-0.002669327831205055,-0.003903299216928333,0.0016469817956724546,-0.345263573782627
1740037147.5679572,0.0025638958538722694,-0.0034578766456010886,-0.003896406405085769,0.002656693785192495,-18.205708571577077
1740037147.575631,0.0025601714898970144,-0.003724363975255096,-0.003893407818052533,0.0029985870332361704,-0.3806511390647439
1740037147.5796254,0.002541972671656158,-0.01819881824085629,-0.0038687406787201294,0.024667139332403512,-0.3806511390647439
1740037147.5810423,0.0024011289543103224,-0.06126288279335684,-0.0036656874279900674,0.08909802460854743,-34.702041023214925
1740037147.6060567,0.0022501670793383067,-0.07546280974241935,-0.0034450544039423526,0.11024658225602389,0.07150175071417525
1740037147.6124504,0.0021747397180746013,-0.07542736126370539,-0.0033349448061522294,0.11010959779012307,-54.841456187563466
1740037147.6194785,0.0020997026969737987,-0.07503702110080236,-0.0032255032394493594,0.10944156670286988,-54.841456187563466
1740037147.6388044,0.00202539324576789,-0.07430945120590862,-0.003117234089889092,0.1082691495602677,1.3502415690789058
1740037147.6408298,0.0019524875212801468,-0.07290572448774302,-0.0030111503539772466,0.10608373591184526,1.3502415690789058
1740037147.6515384,0.0018108613855351197,-0.07011766127258753,-0.002805491467564638,0.10174862641927816,-59.79783691897383
1740037147.6534064,0.0016933843961236602,-0.11747698941145954,-0.00263272618210016,0.17276528546447772,-52.43886694125412
1740037147.661359,0.0013230021385973515,-0.20574213899503763,-0.002084200987094574,0.3050564992643422,1.748026694775558
1740037147.6858902,0.001119522104356807,-0.2034800342405444,-0.0017826622547111423,0.30153873238343165,1.748026694775558
1740037147.691008,0.0009182929841799751,-0.20122912017683198,-0.0014846190016349166,0.2980432530762258,1.7160601838856464
1740037147.7112346,-0.0009351458991986326,-0.23507060113755215,0.001261516767839905,0.3479925600138614,1.6841086540332024
1740037147.713707,-0.001164738898649456,-0.2295929994508235,0.0016012012627395493,0.3396844948996444,-39.04200103820656
1740037147.7229354,-0.001607591175748827,-0.2187120709492517,0.00225582463185983,0.3232022057186195,3.0888472208230917
1740037147.7405393,-0.0018208996200301134,-0.2133084442812864,0.002570851895672665,0.31502726381283486,5.653132740432076
1740037147.7470295,-0.0022601546534376255,-0.2312957783315725,0.0032197135013668637,0.34192047616559,5.615400785745504
1740037147.7538218,-0.002484896425161882,-0.22474177172425658,0.0035517408469507273,0.3320273455838635,-30.34006006879773
1740037147.7609062,-0.00291605159456597,-0.21253198500658763,0.004188149130324249,0.31361262079209634,7.037576497142864
1740037147.7694488,-0.003122519601266369,-0.20646800670039883,0.004492626950897119,0.30447782057287015,-16.727888417906343
1740037147.7758033,-0.003323152865838662,-0.20063326457229286,0.004788321296217851,0.2956943453207321,6.528050569003702
1740037147.7807598,-0.00372434708597538,-0.20058566798188665,0.005379550814939441,0.29559060065068854,6.528050569003702
1740037147.8108993,-0.004119461597602176,-0.19454990800522964,0.005961616107180903,0.2865159146948696,6.274416380251468
1740037147.8247917,-0.004495896660821491,-0.18542761110072173,0.006515648629463086,0.27283223746873775,6.340542984659981
1740037147.8363776,-0.004675769285929618,-0.1798726251081269,0.006780156667560843,0.26450803809775764,6.340542984659981
1740037147.8854969,-0.005023292704751202,-0.17341398718359957,0.007290894921205733,0.2548605331447049,6.119049453277958
1740037147.906666,-0.005191090424899878,-0.16779772014867592,0.007537356115214093,0.2464611940083598,-4.586055344468509
1740037147.9215438,-0.005358674084667614,-0.1675836597677359,0.007783532888404863,0.24617677319076975,5.983881792454094
1740037147.9239342,-0.005526046009399594,-0.16737192473197973,0.0080294324383526,0.2458995499477371,-8.501661223709142
1740037147.941733,-0.005687998473095838,-0.16195246369624483,0.008267241657088793,0.23780921873619248,5.848731558392043
1740037147.9649725,-0.00618081635776887,-0.1618146813209202,0.008991426759712384,0.23776063455547275,0.5747644955004274
1740037147.974988,-0.006341552034016626,-0.16073567624775584,0.009227628705001975,0.23620194528959185,0.5747644955004274
1740037147.980242,-0.00665980982429209,-0.1585952473891228,0.00969540748738038,0.23312276711680135,-3.490454041280092
1740037148.0049336,-0.0071269423055364284,-0.15065499784508318,0.010382236345395767,0.22143314458087693,8.449248313165194
1740037148.0189743,-0.007542024101368082,-0.1311027089423488,0.010991715187871561,0.19236157413022276,8.449248313165194
1740037148.0240226,-0.007665910766080043,-0.12388666471196064,0.011173349707068576,0.18163451919701534,14.933784451592683
1740037148.0371644,-0.007784918268174234,-0.1190075020941912,0.01134777064414379,0.1744209370752137,5.481938195680662
1740037148.0419652,-0.008008920785749916,-0.10985282639254121,0.011675928733811122,0.16091394118634653,5.556537497768401
1740037148.0498228,-0.008114495590070275,-0.10557480432035851,0.011830545029010747,0.15461629519962442,18.8045126198536
1740037148.0578437,-0.008215811098693192,-0.10131550862291691,0.01197889596207613,0.14835093306538427,4.444169335242622
1740037148.0588765,-0.008571694448501562,-0.07687521264153666,0.012499540916858795,0.11221743480469724,4.337613022738306
1740037148.0624132,-0.00863641571149303,-0.06472126299146727,0.012593666260128575,0.0941253432697785,14.938875179172506
1740037148.0883825,-0.00875516999927656,-0.05760089471282302,0.012766348488548244,0.08375501993416407,4.231055802084316
1740037148.1029904,-0.008809318608101278,-0.054148608824718635,0.012845084522062533,0.07873603351428932,8.915223726628932
1740037148.1117861,-0.008860967537759829,-0.051648929658551314,0.012920234032325166,0.07514951026263213,2.9479601822770554
1740037148.120702,-0.008952053338767984,-0.041925713407897525,0.01305270828152055,0.06089281077037435,-4.413972520572029
1740037148.1220615,-0.008991531457182388,-0.03947811841440337,0.013110101164120121,0.05739288259957098,-12.845191021659478
1740037148.1490822,-0.009041160654466758,-0.049629197284369216,0.013182905639724666,0.07280447560454503,2.533429733145752
1740037148.1552336,-0.009100899036027814,-0.059738381561055966,0.013271055257471258,0.08814961774659269,2.533429733145752
1740037148.2036998,-0.00915844724565646,-0.05754820962864771,0.01335608635755453,0.08503110008327254,-42.24631420440211
1740037148.2155852,-0.009213814888843399,-0.05536764318693871,0.01343801554767155,0.08192919011701877,3.0902668408459304
1740037148.21764,-0.009429083710811068,-0.12519070969204701,0.013759275313277117,0.18706002929534465,-44.423558345440966
1740037148.219164,-0.00955137046717802,-0.12228675636695335,0.013942123013231444,0.18284769995432665,-41.42086718295826
1740037148.2203023,-0.009670766433662678,-0.11939596648465677,0.014120782106028957,0.17865909279751233,3.0902668408459304
1740037148.258719,-0.009787284693715146,-0.11651826005246901,0.014295276124843548,0.1744940188145913,5.075120483270399
1740037148.265095,-0.01000700053823559,-0.10764431260905222,0.014624749325788089,0.1614953689546154,-29.741029325958642
1740037148.2876678,-0.01011038711404638,-0.10338657581079069,0.014780020943442213,0.15527161765412456,4.886807144949848
1740037148.322684,-0.01020953459710396,-0.0991474830575796,0.014929100959264226,0.1490800158220129,4.668189119379521
1740037148.3339834,-0.010304461516346826,-0.09492691924286548,0.015072021248673259,0.14292028940903265,46.62353861305247
1740037148.3535562,-0.010555417547639908,0.032648846820905415,0.015457157261201053,-0.047143351979779424,4.563305913516974
1740037148.360524,-0.010519357934280079,0.03605961335983004,0.015405136310435708,-0.05202095076534461,4.353542286636495
1740037148.3749812,-0.010480068607917932,0.039289326362147596,0.01534851019422412,-0.05662611621158843,62.74818513735498
1740037148.3987365,-0.010400371793350032,0.0400343706932017,0.01523430731508082,-0.05725953259995156,0.49147172984974175
1740037148.4100404,-0.010359966679811854,0.04040511353817716,0.015176732625650113,-0.05757468943070711,0.49147172984974175
1740037148.4305036,-0.010237241720530706,0.0410418973758234,0.015003182850414317,-0.057811211115337886,0.4690055494220031
1740037148.4368389,-0.010196066497277476,0.04117522325322895,0.014945409581427543,-0.05777326898677352,69.1569694051225
1740037148.445038,-0.010154758136374193,0.0413083609032831,0.014887673675746168,-0.0577359056813759,0.4577505188033901
1740037148.4741535,-0.009979077255263697,0.09956536080678807,0.014633246242217774,-0.1446863325611792,21.199184504384128
1740037148.4949248,-0.009879662751348956,0.09941450391474027,0.014489045017285656,-0.14420122493211754,-6.336356177347795
1740037148.5378506,-0.009785796865901438,0.09386588544751821,0.014353428097334038,-0.1356169199516174,-18.805897174586185
1740037148.548901,-0.009693440264903565,0.09235660099787309,0.01422032830606705,-0.13309979126698923,-18.805897174586185
1740037148.5684123,-0.009602585860661449,0.09085440424211695,0.014089732296474908,-0.13059600959214082,-1.2984831842655082
1740037148.5958006,-0.009513226609682257,0.08935925097919192,0.013961626828560824,-0.1281054679140837,-1.2984831842655082
1740037148.6061957,-0.009425355512417686,0.08787109726457101,0.013835998768733983,-0.12562805982683997,-11.342033268264
1740037148.6205835,-0.009338842435255517,0.08651307716216836,0.013712650210846536,-0.12334855788744715,-1.1439421208075526
1740037148.6392272,-0.009253680977210878,0.08516145804463883,0.013591569052410653,-0.12108115843588277,-1.071385435470354
1740037148.6420834,-0.009169835857181223,0.08384512002965473,0.013472699881276329,-0.11886917113432367,-1.071385435470354
1740037148.6442041,-0.009087300874027053,0.08253498315416952,0.01335603098073979,-0.11666890053654021,-1.071385435470354
1740037148.6649103,-0.00890962034013127,0.09642061335324892,0.01310445787459203,-0.13704945910951066,19.54148321006931
1740037148.6687822,-0.008814502167055784,0.095118173075486,0.012969597185147478,-0.13486068944455296,-1.0351218880093989
1740037148.6996982,-0.008628093341129718,0.09258685711829547,0.012706311826615453,-0.13060144164632578,-0.9662502573305358
1740037148.7114086,-0.008536735664990051,0.09135767613966686,0.012577781415512029,-0.1285304111034231,20.12658038886492
1740037148.7254033,-0.008429555229845353,0.10718043514469872,0.012425725723191896,-0.15205569232013316,-1.262991498292552
1740037148.727123,-0.008176809607648161,0.13275284573662144,0.01206468976473209,-0.18997820653679914,-1.2333801724829936
1740037148.7284458,-0.007716845651906952,0.15638547728301505,0.011403555903423228,-0.2247384721148147,7.820454594130188
1740037148.7674572,-0.007562160052323783,0.15468559958316863,0.011181604082905897,-0.22195182051733053,1.3181162831339157
1740037148.7755556,-0.00708659864898065,0.16403959949154784,0.010499854221408334,-0.23530752020469942,-2.8170466482046503
1740037148.7950785,-0.0065847728266575254,0.16247983847874195,0.009780705311803632,-0.23229689643825244,-3.206168809619342
1740037148.8272142,-0.006425581113076836,0.15919171358069012,0.009553557434260326,-0.22714787754330615,-3.469813551279563
